Instrument:  EduRaman Pro
The Light Source Type:  532.08nm laser/Tungsten lamp
Detector:  ERAM7X-1
Laser Power(%):  100%
Grating(g/mm):  1200
Slit Width:  50μm
Objective:  10x / 0.3NA
Acq. time(ms):  1000
Accumulation:  1
Spectra_type:  0-2000cm⁻¹
TimeSeq:  5
TimeCycle(ms):  100
Temperature:  -4.3℃
pixel(2026/03/27 15:06:24)	wavelength(2026/03/27 15:06:24)	wavenumber(2026/03/27 15:06:24)	ramanshift(2026/03/27 15:06:24)	intensity(2026/03/27 15:06:24)
1	535.912	18659.77	134.39	4458.000
2	535.992	18657.00	137.16	5656.000
3	536.071	18654.24	139.93	6903.000
4	536.151	18651.47	142.70	8274.000
5	536.230	18648.70	145.47	9516.000
6	536.310	18645.93	148.23	10678.000
7	536.390	18643.17	151.00	11690.000
8	536.469	18640.40	153.76	12406.000
9	536.549	18637.64	156.53	12975.000
10	536.628	18634.88	159.29	13231.000
11	536.708	18632.11	162.05	13376.000
12	536.787	18629.35	164.81	13461.000
13	536.867	18626.59	167.58	13399.000
14	536.946	18623.83	170.34	13150.000
15	537.026	18621.07	173.10	13066.000
16	537.106	18618.31	175.85	12932.000
17	537.185	18615.55	178.61	12804.000
18	537.265	18612.80	181.37	12790.000
19	537.344	18610.04	184.13	12888.000
20	537.424	18607.29	186.88	13087.000
21	537.503	18604.53	189.64	13333.000
22	537.583	18601.78	192.39	13728.000
23	537.663	18599.02	195.14	14128.000
24	537.742	18596.27	197.89	14674.000
25	537.822	18593.52	200.65	15241.000
26	537.901	18590.77	203.40	15970.000
27	537.981	18588.02	206.15	16876.000
28	538.061	18585.27	208.90	18000.000
29	538.140	18582.52	211.65	19356.000
30	538.220	18579.77	214.39	20906.000
31	538.299	18577.03	217.14	22679.000
32	538.379	18574.28	219.89	24830.000
33	538.458	18571.53	222.63	26789.000
34	538.538	18568.79	225.38	28527.000
35	538.618	18566.05	228.12	29646.000
36	538.697	18563.30	230.86	30191.000
37	538.777	18560.56	233.61	29920.000
38	538.856	18557.82	236.35	28917.000
39	538.936	18555.08	239.09	27553.000
40	539.016	18552.34	241.83	25960.000
41	539.095	18549.60	244.57	24240.000
42	539.175	18546.86	247.31	22364.000
43	539.254	18544.12	250.04	20881.000
44	539.334	18541.39	252.78	19448.000
45	539.414	18538.65	255.52	18280.000
46	539.493	18535.92	258.25	17162.000
47	539.573	18533.18	260.99	16182.000
48	539.652	18530.45	263.72	15462.000
49	539.732	18527.71	266.45	14807.000
50	539.812	18524.98	269.18	14178.000
51	539.891	18522.25	271.92	13562.000
52	539.971	18519.52	274.65	12910.000
53	540.050	18516.79	277.38	12349.000
54	540.130	18514.06	280.11	11747.000
55	540.210	18511.33	282.83	11215.000
56	540.289	18508.60	285.56	10877.000
57	540.369	18505.88	288.29	10489.000
58	540.448	18503.15	291.02	10280.000
59	540.528	18500.43	293.74	10046.000
60	540.608	18497.70	296.46	9994.000
61	540.687	18494.98	299.19	9888.000
62	540.767	18492.25	301.91	9860.000
63	540.847	18489.53	304.63	9864.000
64	540.926	18486.81	307.36	9880.000
65	541.006	18484.09	310.08	9942.000
66	541.085	18481.37	312.80	10000.000
67	541.165	18478.65	315.52	10066.000
68	541.245	18475.93	318.23	10161.000
69	541.324	18473.21	320.95	10282.000
70	541.404	18470.50	323.67	10358.000
71	541.484	18467.78	326.38	10339.000
72	541.563	18465.07	329.10	10338.000
73	541.643	18462.35	331.81	10331.000
74	541.722	18459.64	334.53	10237.000
75	541.802	18456.93	337.24	10097.000
76	541.882	18454.21	339.95	9912.000
77	541.961	18451.50	342.67	9754.000
78	542.041	18448.79	345.38	9621.000
79	542.121	18446.08	348.09	9540.000
80	542.200	18443.37	350.80	9555.000
81	542.280	18440.66	353.50	9632.000
82	542.359	18437.96	356.21	9727.000
83	542.439	18435.25	358.92	9693.000
84	542.519	18432.54	361.62	9591.000
85	542.598	18429.84	364.33	9492.000
86	542.678	18427.13	367.03	9372.000
87	542.758	18424.43	369.74	9173.000
88	542.837	18421.72	372.44	8917.000
89	542.917	18419.02	375.14	8804.000
90	542.997	18416.32	377.85	8671.000
91	543.076	18413.62	380.55	8659.000
92	543.156	18410.92	383.25	8672.000
93	543.236	18408.22	385.95	8825.000
94	543.315	18405.52	388.64	9004.000
95	543.395	18402.82	391.34	9388.000
96	543.475	18400.13	394.04	10107.000
97	543.554	18397.43	396.74	11281.000
98	543.634	18394.74	399.43	13308.000
99	543.713	18392.04	402.13	16243.000
100	543.793	18389.35	404.82	19641.000
101	543.873	18386.65	407.51	23362.000
102	543.952	18383.96	410.21	26802.000
103	544.032	18381.27	412.90	29593.000
104	544.112	18378.58	415.59	31155.000
105	544.191	18375.89	418.28	31778.000
106	544.271	18373.20	420.97	31308.000
107	544.351	18370.51	423.66	30035.000
108	544.430	18367.82	426.34	28819.000
109	544.510	18365.13	429.03	28245.000
110	544.590	18362.45	431.72	29104.000
111	544.669	18359.76	434.40	30918.000
112	544.749	18357.08	437.09	32041.000
113	544.829	18354.39	439.77	31587.000
114	544.908	18351.71	442.46	29221.000
115	544.988	18349.03	445.14	25555.000
116	545.068	18346.35	447.82	22029.000
117	545.147	18343.66	450.50	19054.000
118	545.227	18340.98	453.18	17010.000
119	545.307	18338.30	455.86	15782.000
120	545.386	18335.63	458.54	15165.000
121	545.466	18332.95	461.22	14795.000
122	545.546	18330.27	463.90	14414.000
123	545.625	18327.59	466.57	14027.000
124	545.705	18324.92	469.25	13499.000
125	545.785	18322.24	471.92	13132.000
126	545.864	18319.57	474.60	12685.000
127	545.944	18316.89	477.27	12410.000
128	546.024	18314.22	479.94	12099.000
129	546.103	18311.55	482.62	12044.000
130	546.183	18308.88	485.29	11967.000
131	546.263	18306.21	487.96	11755.000
132	546.342	18303.54	490.63	11379.000
133	546.422	18300.87	493.30	10985.000
134	546.502	18298.20	495.97	10588.000
135	546.582	18295.53	498.63	10443.000
136	546.661	18292.87	501.30	10574.000
137	546.741	18290.20	503.97	10984.000
138	546.821	18287.53	506.63	11572.000
139	546.900	18284.87	509.30	12107.000
140	546.980	18282.21	511.96	12788.000
141	547.060	18279.54	514.62	13511.000
142	547.139	18276.88	517.29	14811.000
143	547.219	18274.22	519.95	16921.000
144	547.299	18271.56	522.61	19638.000
145	547.378	18268.90	525.27	22103.000
146	547.458	18266.24	527.93	23351.000
147	547.538	18263.58	530.59	22759.000
148	547.617	18260.92	533.24	20616.000
149	547.697	18258.26	535.90	17680.000
150	547.777	18255.61	538.56	14723.000
151	547.857	18252.95	541.21	12358.000
152	547.936	18250.30	543.87	10674.000
153	548.016	18247.64	546.52	9568.000
154	548.096	18244.99	549.18	9084.000
155	548.175	18242.34	551.83	8917.000
156	548.255	18239.69	554.48	9166.000
157	548.335	18237.03	557.13	9551.000
158	548.414	18234.38	559.78	9967.000
159	548.494	18231.73	562.43	9961.000
160	548.574	18229.09	565.08	9922.000
161	548.654	18226.44	567.73	9734.000
162	548.733	18223.79	570.38	9634.000
163	548.813	18221.14	573.02	9692.000
164	548.893	18218.50	575.67	9690.000
165	548.972	18215.85	578.31	9615.000
166	549.052	18213.21	580.96	9187.000
167	549.132	18210.56	583.60	8765.000
168	549.212	18207.92	586.25	8419.000
169	549.291	18205.28	588.89	8145.000
170	549.371	18202.64	591.53	7924.000
171	549.451	18200.00	594.17	7645.000
172	549.530	18197.36	596.81	7238.000
173	549.610	18194.72	599.45	7046.000
174	549.690	18192.08	602.09	6705.000
175	549.770	18189.44	604.73	6466.000
176	549.849	18186.80	607.36	6418.000
177	549.929	18184.17	610.00	6519.000
178	550.009	18181.53	612.63	6586.000
179	550.088	18178.90	615.27	6768.000
180	550.168	18176.26	617.90	6905.000
181	550.248	18173.63	620.54	7093.000
182	550.328	18171.00	623.17	7311.000
183	550.407	18168.36	625.80	7412.000
184	550.487	18165.73	628.43	7364.000
185	550.567	18163.10	631.06	7124.000
186	550.646	18160.47	633.69	6845.000
187	550.726	18157.84	636.32	6616.000
188	550.806	18155.22	638.95	6498.000
189	550.886	18152.59	641.58	6434.000
190	550.965	18149.96	644.20	6478.000
191	551.045	18147.34	646.83	6653.000
192	551.125	18144.71	649.46	6992.000
193	551.205	18142.09	652.08	7603.000
194	551.284	18139.46	654.70	8576.000
195	551.364	18136.84	657.33	9635.000
196	551.444	18134.22	659.95	10503.000
197	551.523	18131.60	662.57	10822.000
198	551.603	18128.98	665.19	10521.000
199	551.683	18126.35	667.81	9784.000
200	551.763	18123.74	670.43	8895.000
201	551.842	18121.12	673.05	8046.000
202	551.922	18118.50	675.67	7509.000
203	552.002	18115.88	678.28	7180.000
204	552.082	18113.27	680.90	6908.000
205	552.161	18110.65	683.52	6789.000
206	552.241	18108.03	686.13	6885.000
207	552.321	18105.42	688.75	7089.000
208	552.401	18102.81	691.36	7529.000
209	552.480	18100.19	693.97	8034.000
210	552.560	18097.58	696.58	8623.000
211	552.640	18094.97	699.20	8961.000
212	552.719	18092.36	701.81	8905.000
213	552.799	18089.75	704.42	8603.000
214	552.879	18087.14	707.02	8070.000
215	552.959	18084.53	709.63	7632.000
216	553.038	18081.93	712.24	7389.000
217	553.118	18079.32	714.85	7458.000
218	553.198	18076.71	717.45	7889.000
219	553.278	18074.11	720.06	8904.000
220	553.357	18071.50	722.66	10244.000
221	553.437	18068.90	725.27	11817.000
222	553.517	18066.30	727.87	13374.000
223	553.597	18063.69	730.47	14725.000
224	553.676	18061.09	733.08	15254.000
225	553.756	18058.49	735.68	14538.000
226	553.836	18055.89	738.28	12667.000
227	553.916	18053.29	740.88	11004.000
228	553.995	18050.69	743.48	10363.000
229	554.075	18048.09	746.07	10717.000
230	554.155	18045.50	748.67	11822.000
231	554.235	18042.90	751.27	13153.000
232	554.314	18040.30	753.86	14302.000
233	554.394	18037.71	756.46	15271.000
234	554.474	18035.11	759.05	15768.000
235	554.554	18032.52	761.65	15322.000
236	554.633	18029.93	764.24	13882.000
237	554.713	18027.33	766.83	12719.000
238	554.793	18024.74	769.42	12818.000
239	554.873	18022.15	772.02	13667.000
240	554.952	18019.56	774.61	15115.000
241	555.032	18016.97	777.19	16589.000
242	555.112	18014.38	779.78	18080.000
243	555.192	18011.79	782.37	19883.000
244	555.272	18009.21	784.96	22503.000
245	555.351	18006.62	787.55	25608.000
246	555.431	18004.04	790.13	29045.000
247	555.511	18001.45	792.72	32861.000
248	555.591	17998.87	795.30	36276.000
249	555.670	17996.28	797.88	38768.000
250	555.750	17993.70	800.47	39297.000
251	555.830	17991.12	803.05	37375.000
252	555.910	17988.54	805.63	33328.000
253	555.989	17985.95	808.21	28338.000
254	556.069	17983.37	810.79	23491.000
255	556.149	17980.80	813.37	19507.000
256	556.229	17978.22	815.95	16596.000
257	556.308	17975.64	818.53	14868.000
258	556.388	17973.06	821.10	14045.000
259	556.468	17970.49	823.68	13742.000
260	556.548	17967.91	826.26	13510.000
261	556.628	17965.33	828.83	13438.000
262	556.707	17962.76	831.41	13055.000
263	556.787	17960.19	833.98	12733.000
264	556.867	17957.61	836.55	12397.000
265	556.947	17955.04	839.12	12137.000
266	557.026	17952.47	841.70	12024.000
267	557.106	17949.90	844.27	11841.000
268	557.186	17947.33	846.84	11634.000
269	557.266	17944.76	849.41	11271.000
270	557.346	17942.19	851.97	10614.000
271	557.425	17939.62	854.54	10112.000
272	557.505	17937.06	857.11	9426.000
273	557.585	17934.49	859.68	9058.000
274	557.665	17931.93	862.24	8853.000
275	557.744	17929.36	864.81	8711.000
276	557.824	17926.80	867.37	8652.000
277	557.904	17924.23	869.93	8611.000
278	557.984	17921.67	872.50	8686.000
279	558.064	17919.11	875.06	8670.000
280	558.143	17916.55	877.62	8761.000
281	558.223	17913.99	880.18	8884.000
282	558.303	17911.43	882.74	9070.000
283	558.383	17908.87	885.30	9378.000
284	558.462	17906.31	887.86	9915.000
285	558.542	17903.75	890.42	10649.000
286	558.622	17901.19	892.97	11800.000
287	558.702	17898.64	895.53	13518.000
288	558.782	17896.08	898.08	15640.000
289	558.861	17893.53	900.64	17825.000
290	558.941	17890.97	903.19	19592.000
291	559.021	17888.42	905.75	21078.000
292	559.101	17885.87	908.30	23057.000
293	559.180	17883.31	910.85	27074.000
294	559.260	17880.76	913.40	32189.000
295	559.340	17878.21	915.95	34759.000
296	559.420	17875.66	918.50	32358.000
297	559.500	17873.11	921.05	26400.000
298	559.579	17870.56	923.60	20570.000
299	559.659	17868.02	926.15	17462.000
300	559.739	17865.47	928.70	17020.000
301	559.819	17862.92	931.24	18278.000
302	559.899	17860.38	933.79	20675.000
303	559.978	17857.83	936.33	22948.000
304	560.058	17855.29	938.88	24025.000
305	560.138	17852.74	941.42	22693.000
306	560.218	17850.20	943.96	19528.000
307	560.298	17847.66	946.51	16271.000
308	560.377	17845.12	949.05	13783.000
309	560.457	17842.58	951.59	12470.000
310	560.537	17840.04	954.13	11980.000
311	560.617	17837.50	956.67	11967.000
312	560.697	17834.96	959.21	12207.000
313	560.776	17832.42	961.74	12524.000
314	560.856	17829.88	964.28	12951.000
315	560.936	17827.35	966.82	13356.000
316	561.016	17824.81	969.35	13908.000
317	561.096	17822.28	971.89	14384.000
318	561.175	17819.74	974.42	14726.000
319	561.255	17817.21	976.96	15187.000
320	561.335	17814.68	979.49	15757.000
321	561.415	17812.14	982.02	16371.000
322	561.495	17809.61	984.55	17033.000
323	561.574	17807.08	987.08	17377.000
324	561.654	17804.55	989.61	17468.000
325	561.734	17802.02	992.14	18061.000
326	561.814	17799.49	994.67	19880.000
327	561.894	17796.97	997.20	22698.000
328	561.973	17794.44	999.73	23659.000
329	562.053	17791.91	1002.25	20868.000
330	562.133	17789.39	1004.78	15950.000
331	562.213	17786.86	1007.30	12439.000
332	562.293	17784.34	1009.83	10971.000
333	562.372	17781.81	1012.35	10388.000
334	562.452	17779.29	1014.88	10200.000
335	562.532	17776.77	1017.40	10191.000
336	562.612	17774.25	1019.92	10311.000
337	562.692	17771.73	1022.44	10495.000
338	562.771	17769.21	1024.96	10837.000
339	562.851	17766.69	1027.48	11111.000
340	562.931	17764.17	1030.00	11119.000
341	563.011	17761.65	1032.52	10801.000
342	563.091	17759.13	1035.03	10433.000
343	563.170	17756.61	1037.55	10133.000
344	563.250	17754.10	1040.07	9893.000
345	563.330	17751.58	1042.58	9872.000
346	563.410	17749.07	1045.10	9798.000
347	563.490	17746.56	1047.61	9935.000
348	563.569	17744.04	1050.12	10139.000
349	563.649	17741.53	1052.64	10296.000
350	563.729	17739.02	1055.15	10420.000
351	563.809	17736.51	1057.66	10494.000
352	563.889	17734.00	1060.17	10535.000
353	563.969	17731.49	1062.68	10537.000
354	564.048	17728.98	1065.19	10567.000
355	564.128	17726.47	1067.70	10574.000
356	564.208	17723.96	1070.20	10612.000
357	564.288	17721.45	1072.71	10701.000
358	564.368	17718.95	1075.22	10862.000
359	564.447	17716.44	1077.72	10971.000
360	564.527	17713.94	1080.23	11055.000
361	564.607	17711.43	1082.73	11154.000
362	564.687	17708.93	1085.24	11122.000
363	564.767	17706.43	1087.74	11242.000
364	564.846	17703.93	1090.24	11255.000
365	564.926	17701.42	1092.74	11375.000
366	565.006	17698.92	1095.24	11497.000
367	565.086	17696.42	1097.74	11736.000
368	565.166	17693.92	1100.24	11950.000
369	565.246	17691.43	1102.74	12168.000
370	565.325	17688.93	1105.24	12530.000
371	565.405	17686.43	1107.73	12926.000
372	565.485	17683.93	1110.23	13448.000
373	565.565	17681.44	1112.73	14085.000
374	565.645	17678.94	1115.22	14711.000
375	565.724	17676.45	1117.72	15170.000
376	565.804	17673.96	1120.21	15448.000
377	565.884	17671.46	1122.70	15661.000
378	565.964	17668.97	1125.20	15797.000
379	566.044	17666.48	1127.69	15974.000
380	566.124	17663.99	1130.18	16181.000
381	566.203	17661.50	1132.67	16715.000
382	566.283	17659.01	1135.16	17337.000
383	566.363	17656.52	1137.65	18008.000
384	566.443	17654.03	1140.13	18548.000
385	566.523	17651.54	1142.62	19185.000
386	566.602	17649.06	1145.11	19931.000
387	566.682	17646.57	1147.59	21104.000
388	566.762	17644.09	1150.08	22739.000
389	566.842	17641.60	1152.56	25477.000
390	566.922	17639.12	1155.05	29215.000
391	567.002	17636.63	1157.53	34410.000
392	567.081	17634.15	1160.01	41093.000
393	567.161	17631.67	1162.50	49442.000
394	567.241	17629.19	1164.98	58692.000
395	567.321	17626.71	1167.46	65535.000
396	567.401	17624.23	1169.94	65535.000
397	567.481	17621.75	1172.42	65535.000
398	567.560	17619.27	1174.90	65535.000
399	567.640	17616.79	1177.37	65535.000
400	567.720	17614.32	1179.85	65535.000
401	567.800	17611.84	1182.33	65535.000
402	567.880	17609.36	1184.80	65535.000
403	567.960	17606.89	1187.28	61420.000
404	568.039	17604.41	1189.75	47609.000
405	568.119	17601.94	1192.23	38775.000
406	568.199	17599.47	1194.70	33104.000
407	568.279	17597.00	1197.17	29283.000
408	568.359	17594.52	1199.64	27413.000
409	568.438	17592.05	1202.11	27717.000
410	568.518	17589.58	1204.58	30695.000
411	568.598	17587.11	1207.05	37172.000
412	568.678	17584.64	1209.52	47509.000
413	568.758	17582.18	1211.99	58732.000
414	568.838	17579.71	1214.46	65535.000
415	568.917	17577.24	1216.92	65535.000
416	568.997	17574.78	1219.39	65535.000
417	569.077	17572.31	1221.86	64648.000
418	569.157	17569.85	1224.32	47775.000
419	569.237	17567.38	1226.78	33212.000
420	569.317	17564.92	1229.25	27034.000
421	569.396	17562.46	1231.71	23138.000
422	569.476	17559.99	1234.17	20391.000
423	569.556	17557.53	1236.63	18764.000
424	569.636	17555.07	1239.09	17712.000
425	569.716	17552.61	1241.55	17113.000
426	569.796	17550.15	1244.01	16885.000
427	569.875	17547.69	1246.47	16647.000
428	569.955	17545.24	1248.93	16618.000
429	570.035	17542.78	1251.39	16678.000
430	570.115	17540.32	1253.84	16730.000
431	570.195	17537.87	1256.30	17163.000
432	570.275	17535.41	1258.75	17306.000
433	570.354	17532.96	1261.21	17863.000
434	570.434	17530.50	1263.66	18434.000
435	570.514	17528.05	1266.12	19286.000
436	570.594	17525.60	1268.57	20386.000
437	570.674	17523.15	1271.02	21833.000
438	570.754	17520.70	1273.47	23741.000
439	570.833	17518.25	1275.92	26457.000
440	570.913	17515.80	1278.37	30317.000
441	570.993	17513.35	1280.82	36232.000
442	571.073	17510.90	1283.27	44348.000
443	571.153	17508.45	1285.72	53450.000
444	571.233	17506.00	1288.16	61211.000
445	571.312	17503.56	1290.61	65535.000
446	571.392	17501.11	1293.05	65535.000
447	571.472	17498.67	1295.50	65535.000
448	571.552	17496.22	1297.94	65535.000
449	571.632	17493.78	1300.39	65535.000
450	571.712	17491.34	1302.83	55426.000
451	571.791	17488.89	1305.27	40662.000
452	571.871	17486.45	1307.71	34768.000
453	571.951	17484.01	1310.16	31130.000
454	572.031	17481.57	1312.60	29278.000
455	572.111	17479.13	1315.03	28489.000
456	572.191	17476.69	1317.47	28205.000
457	572.270	17474.25	1319.91	28547.000
458	572.350	17471.82	1322.35	29335.000
459	572.430	17469.38	1324.79	30814.000
460	572.510	17466.94	1327.22	33696.000
461	572.590	17464.51	1329.66	38671.000
462	572.670	17462.07	1332.09	45773.000
463	572.750	17459.64	1334.53	52555.000
464	572.829	17457.21	1336.96	56337.000
465	572.909	17454.77	1339.39	56529.000
466	572.989	17452.34	1341.82	54655.000
467	573.069	17449.91	1344.26	52824.000
468	573.149	17447.48	1346.69	53419.000
469	573.229	17445.05	1349.12	56334.000
470	573.308	17442.62	1351.55	60800.000
471	573.388	17440.19	1353.98	65535.000
472	573.468	17437.76	1356.40	65535.000
473	573.548	17435.34	1358.83	65535.000
474	573.628	17432.91	1361.26	65535.000
475	573.708	17430.48	1363.68	65535.000
476	573.787	17428.06	1366.11	65535.000
477	573.867	17425.63	1368.53	65535.000
478	573.947	17423.21	1370.96	65535.000
479	574.027	17420.79	1373.38	65535.000
480	574.107	17418.36	1375.80	65535.000
481	574.187	17415.94	1378.23	65535.000
482	574.266	17413.52	1380.65	65535.000
483	574.346	17411.10	1383.07	65535.000
484	574.426	17408.68	1385.49	65535.000
485	574.506	17406.26	1387.91	65535.000
486	574.586	17403.84	1390.32	65535.000
487	574.666	17401.42	1392.74	65535.000
488	574.745	17399.01	1395.16	65535.000
489	574.825	17396.59	1397.58	65535.000
490	574.905	17394.17	1399.99	65535.000
491	574.985	17391.76	1402.41	65535.000
492	575.065	17389.34	1404.82	65535.000
493	575.145	17386.93	1407.24	65535.000
494	575.225	17384.52	1409.65	57205.000
495	575.304	17382.10	1412.06	48677.000
496	575.384	17379.69	1414.47	45266.000
497	575.464	17377.28	1416.89	41636.000
498	575.544	17374.87	1419.30	38129.000
499	575.624	17372.46	1421.71	35948.000
500	575.704	17370.05	1424.12	35153.000
501	575.783	17367.64	1426.52	35651.000
502	575.863	17365.23	1428.93	37445.000
503	575.943	17362.83	1431.34	39689.000
504	576.023	17360.42	1433.75	42101.000
505	576.103	17358.01	1436.15	44427.000
506	576.183	17355.61	1438.56	46385.000
507	576.262	17353.20	1440.96	47590.000
508	576.342	17350.80	1443.37	48469.000
509	576.422	17348.40	1445.77	48913.000
510	576.502	17345.99	1448.17	48794.000
511	576.582	17343.59	1450.57	48023.000
512	576.662	17341.19	1452.97	46683.000
513	576.741	17338.79	1455.38	45800.000
514	576.821	17336.39	1457.78	45835.000
515	576.901	17333.99	1460.17	46599.000
516	576.981	17331.59	1462.57	48738.000
517	577.061	17329.20	1464.97	51573.000
518	577.141	17326.80	1467.37	54483.000
519	577.221	17324.40	1469.76	57367.000
520	577.300	17322.01	1472.16	59432.000
521	577.380	17319.61	1474.56	61510.000
522	577.460	17317.22	1476.95	63467.000
523	577.540	17314.82	1479.34	65535.000
524	577.620	17312.43	1481.74	65535.000
525	577.700	17310.04	1484.13	65535.000
526	577.779	17307.64	1486.52	65535.000
527	577.859	17305.25	1488.91	65535.000
528	577.939	17302.86	1491.30	65535.000
529	578.019	17300.47	1493.69	65535.000
530	578.099	17298.08	1496.08	65535.000
531	578.179	17295.69	1498.47	56247.000
532	578.258	17293.31	1500.86	42164.000
533	578.338	17290.92	1503.25	39059.000
534	578.418	17288.53	1505.63	37195.000
535	578.498	17286.15	1508.02	36428.000
536	578.578	17283.76	1510.41	36297.000
537	578.658	17281.38	1512.79	36343.000
538	578.737	17278.99	1515.17	36566.000
539	578.817	17276.61	1517.56	36499.000
540	578.897	17274.23	1519.94	36275.000
541	578.977	17271.84	1522.32	36037.000
542	579.057	17269.46	1524.70	35576.000
543	579.137	17267.08	1527.09	35428.000
544	579.217	17264.70	1529.47	35145.000
545	579.296	17262.32	1531.84	34910.000
546	579.376	17259.94	1534.22	34678.000
547	579.456	17257.56	1536.60	34656.000
548	579.536	17255.19	1538.98	34455.000
549	579.616	17252.81	1541.36	34344.000
550	579.696	17250.43	1543.73	34109.000
551	579.775	17248.06	1546.11	33868.000
552	579.855	17245.68	1548.48	33620.000
553	579.935	17243.31	1550.86	33436.000
554	580.015	17240.94	1553.23	33695.000
555	580.095	17238.56	1555.60	33888.000
556	580.175	17236.19	1557.98	34406.000
557	580.254	17233.82	1560.35	35831.000
558	580.334	17231.45	1562.72	38144.000
559	580.414	17229.08	1565.09	41583.000
560	580.494	17226.71	1567.46	45836.000
561	580.574	17224.34	1569.83	49589.000
562	580.654	17221.97	1572.19	53228.000
563	580.733	17219.60	1574.56	57720.000
564	580.813	17217.24	1576.93	63460.000
565	580.893	17214.87	1579.30	65535.000
566	580.973	17212.51	1581.66	65535.000
567	581.053	17210.14	1584.03	65535.000
568	581.133	17207.78	1586.39	65535.000
569	581.212	17205.41	1588.75	65535.000
570	581.292	17203.05	1591.12	65535.000
571	581.372	17200.69	1593.48	65535.000
572	581.452	17198.32	1595.84	65535.000
573	581.532	17195.96	1598.20	65535.000
574	581.612	17193.60	1600.56	65535.000
575	581.691	17191.24	1602.92	65535.000
576	581.771	17188.88	1605.28	65535.000
577	581.851	17186.53	1607.64	65535.000
578	581.931	17184.17	1610.00	65535.000
579	582.011	17181.81	1612.36	65535.000
580	582.091	17179.45	1614.71	65535.000
581	582.170	17177.10	1617.07	65535.000
582	582.250	17174.74	1619.42	65535.000
583	582.330	17172.39	1621.78	65535.000
584	582.410	17170.03	1624.13	65535.000
585	582.490	17167.68	1626.48	65535.000
586	582.570	17165.33	1628.84	65535.000
587	582.650	17162.98	1631.19	65535.000
588	582.729	17160.63	1633.54	65535.000
589	582.809	17158.27	1635.89	65535.000
590	582.889	17155.92	1638.24	65535.000
591	582.969	17153.58	1640.59	65535.000
592	583.049	17151.23	1642.94	59733.000
593	583.129	17148.88	1645.29	33580.000
594	583.208	17146.53	1647.64	31155.000
595	583.288	17144.18	1649.98	30152.000
596	583.368	17141.84	1652.33	29452.000
597	583.448	17139.49	1654.67	28817.000
598	583.528	17137.15	1657.02	27989.000
599	583.608	17134.80	1659.36	27027.000
600	583.687	17132.46	1661.71	25702.000
601	583.767	17130.12	1664.05	24671.000
602	583.847	17127.77	1666.39	23802.000
603	583.927	17125.43	1668.73	23062.000
604	584.007	17123.09	1671.07	22513.000
605	584.086	17120.75	1673.41	22072.000
606	584.166	17118.41	1675.75	21544.000
607	584.246	17116.07	1678.09	21294.000
608	584.326	17113.73	1680.43	20834.000
609	584.406	17111.40	1682.77	20444.000
610	584.486	17109.06	1685.11	20155.000
611	584.565	17106.72	1687.44	19846.000
612	584.645	17104.39	1689.78	19603.000
613	584.725	17102.05	1692.11	19360.000
614	584.805	17099.72	1694.45	19227.000
615	584.885	17097.38	1696.78	19152.000
616	584.965	17095.05	1699.12	18991.000
617	585.044	17092.72	1701.45	18808.000
618	585.124	17090.39	1703.78	18674.000
619	585.204	17088.06	1706.11	18586.000
620	585.284	17085.72	1708.44	18357.000
621	585.364	17083.39	1710.77	18214.000
622	585.444	17081.07	1713.10	17989.000
623	585.523	17078.74	1715.43	17825.000
624	585.603	17076.41	1717.76	17681.000
625	585.683	17074.08	1720.09	17395.000
626	585.763	17071.75	1722.41	17159.000
627	585.843	17069.43	1724.74	16904.000
628	585.923	17067.10	1727.06	16654.000
629	586.002	17064.78	1729.39	16480.000
630	586.082	17062.45	1731.71	16392.000
631	586.162	17060.13	1734.04	16208.000
632	586.242	17057.81	1736.36	15950.000
633	586.322	17055.48	1738.68	15920.000
634	586.401	17053.16	1741.00	15893.000
635	586.481	17050.84	1743.32	15666.000
636	586.561	17048.52	1745.65	15520.000
637	586.641	17046.20	1747.97	15433.000
638	586.721	17043.88	1750.28	15422.000
639	586.801	17041.56	1752.60	15233.000
640	586.880	17039.25	1754.92	15080.000
641	586.960	17036.93	1757.24	15017.000
642	587.040	17034.61	1759.55	14968.000
643	587.120	17032.30	1761.87	14883.000
644	587.200	17029.98	1764.19	14890.000
645	587.280	17027.67	1766.50	14825.000
646	587.359	17025.35	1768.81	14900.000
647	587.439	17023.04	1771.13	14892.000
648	587.519	17020.73	1773.44	14912.000
649	587.599	17018.41	1775.75	15121.000
650	587.679	17016.10	1778.06	15195.000
651	587.758	17013.79	1780.37	15210.000
652	587.838	17011.48	1782.68	15228.000
653	587.918	17009.17	1784.99	15274.000
654	587.998	17006.86	1787.30	15477.000
655	588.078	17004.55	1789.61	15661.000
656	588.158	17002.25	1791.92	15787.000
657	588.237	16999.94	1794.23	15943.000
658	588.317	16997.63	1796.53	16203.000
659	588.397	16995.33	1798.84	16387.000
660	588.477	16993.02	1801.14	16756.000
661	588.557	16990.72	1803.45	16802.000
662	588.636	16988.41	1805.75	16865.000
663	588.716	16986.11	1808.06	17040.000
664	588.796	16983.81	1810.36	17087.000
665	588.876	16981.51	1812.66	17041.000
666	588.956	16979.21	1814.96	17016.000
667	589.036	16976.90	1817.26	17127.000
668	589.115	16974.60	1819.56	16998.000
669	589.195	16972.31	1821.86	16998.000
670	589.275	16970.01	1824.16	17025.000
671	589.355	16967.71	1826.46	17032.000
672	589.435	16965.41	1828.76	17023.000
673	589.514	16963.11	1831.05	17037.000
674	589.594	16960.82	1833.35	17077.000
675	589.674	16958.52	1835.64	17024.000
676	589.754	16956.23	1837.94	16949.000
677	589.834	16953.93	1840.23	16926.000
678	589.913	16951.64	1842.53	16878.000
679	589.993	16949.35	1844.82	16685.000
680	590.073	16947.05	1847.11	16707.000
681	590.153	16944.76	1849.40	16488.000
682	590.233	16942.47	1851.70	16400.000
683	590.313	16940.18	1853.99	16311.000
684	590.392	16937.89	1856.28	16149.000
685	590.472	16935.60	1858.57	16080.000
686	590.552	16933.31	1860.85	15900.000
687	590.632	16931.02	1863.14	15776.000
688	590.712	16928.74	1865.43	15800.000
689	590.791	16926.45	1867.72	15700.000
690	590.871	16924.16	1870.00	15605.000
691	590.951	16921.88	1872.29	15579.000
692	591.031	16919.59	1874.57	15508.000
693	591.111	16917.31	1876.86	15383.000
694	591.190	16915.02	1879.14	15218.000
695	591.270	16912.74	1881.42	15144.000
696	591.350	16910.46	1883.71	14973.000
697	591.430	16908.18	1885.99	15023.000
698	591.510	16905.90	1888.27	15032.000
699	591.589	16903.62	1890.55	15083.000
700	591.669	16901.34	1892.83	15094.000
701	591.749	16899.06	1895.11	15055.000
702	591.829	16896.78	1897.39	15056.000
703	591.909	16894.50	1899.67	15007.000
704	591.988	16892.22	1901.94	15145.000
705	592.068	16889.95	1904.22	15331.000
706	592.148	16887.67	1906.50	15380.000
707	592.228	16885.39	1908.77	15486.000
708	592.308	16883.12	1911.05	15644.000
709	592.387	16880.85	1913.32	15712.000
710	592.467	16878.57	1915.59	15776.000
711	592.547	16876.30	1917.87	15819.000
712	592.627	16874.03	1920.14	15960.000
713	592.707	16871.75	1922.41	15879.000
714	592.786	16869.48	1924.68	15897.000
715	592.866	16867.21	1926.95	15857.000
716	592.946	16864.94	1929.22	15705.000
717	593.026	16862.67	1931.49	15552.000
718	593.106	16860.41	1933.76	15424.000
719	593.185	16858.14	1936.03	15307.000
720	593.265	16855.87	1938.30	15251.000
721	593.345	16853.60	1940.56	15259.000
722	593.425	16851.34	1942.83	15171.000
723	593.505	16849.07	1945.10	15205.000
724	593.584	16846.81	1947.36	15212.000
725	593.664	16844.54	1949.62	15119.000
726	593.744	16842.28	1951.89	15173.000
727	593.824	16840.02	1954.15	15095.000
728	593.903	16837.75	1956.41	15069.000
729	593.983	16835.49	1958.68	14999.000
730	594.063	16833.23	1960.94	14995.000
731	594.143	16830.97	1963.20	15098.000
732	594.223	16828.71	1965.46	15086.000
733	594.302	16826.45	1967.72	15197.000
734	594.382	16824.19	1969.97	15232.000
735	594.462	16821.93	1972.23	15240.000
736	594.542	16819.68	1974.49	15306.000
737	594.622	16817.42	1976.75	15219.000
738	594.701	16815.16	1979.00	15074.000
739	594.781	16812.91	1981.26	14909.000
740	594.861	16810.65	1983.51	14759.000
741	594.941	16808.40	1985.77	14469.000
742	595.020	16806.14	1988.02	14271.000
743	595.100	16803.89	1990.28	14192.000
744	595.180	16801.64	1992.53	14098.000
745	595.260	16799.39	1994.78	14023.000
746	595.340	16797.14	1997.03	14020.000
747	595.419	16794.88	1999.28	13929.000
748	595.499	16792.63	2001.53	13936.000
749	595.579	16790.39	2003.78	13900.000
750	595.659	16788.14	2006.03	13748.000
751	595.739	16785.89	2008.28	13694.000
752	595.818	16783.64	2010.53	13644.000
753	595.898	16781.39	2012.77	13619.000
754	595.978	16779.15	2015.02	13648.000
755	596.058	16776.90	2017.26	13746.000
756	596.137	16774.66	2019.51	13733.000
757	596.217	16772.41	2021.75	13845.000
758	596.297	16770.17	2024.00	13806.000
759	596.377	16767.93	2026.24	13805.000
760	596.456	16765.68	2028.48	13912.000
761	596.536	16763.44	2030.73	13820.000
762	596.616	16761.20	2032.97	13846.000
763	596.696	16758.96	2035.21	13736.000
764	596.776	16756.72	2037.45	13756.000
765	596.855	16754.48	2039.69	13744.000
766	596.935	16752.24	2041.93	13777.000
767	597.015	16750.00	2044.16	13804.000
768	597.095	16747.76	2046.40	13827.000
769	597.174	16745.53	2048.64	14014.000
770	597.254	16743.29	2050.88	14114.000
771	597.334	16741.05	2053.11	14225.000
772	597.414	16738.82	2055.35	14147.000
773	597.493	16736.58	2057.58	14115.000
774	597.573	16734.35	2059.82	14079.000
775	597.653	16732.12	2062.05	14017.000
776	597.733	16729.88	2064.28	13880.000
777	597.813	16727.65	2066.51	13886.000
778	597.892	16725.42	2068.75	13826.000
779	597.972	16723.19	2070.98	13846.000
780	598.052	16720.96	2073.21	13937.000
781	598.132	16718.73	2075.44	13950.000
782	598.211	16716.50	2077.67	14078.000
783	598.291	16714.27	2079.89	14251.000
784	598.371	16712.04	2082.12	14356.000
785	598.451	16709.82	2084.35	14572.000
786	598.530	16707.59	2086.58	14700.000
787	598.610	16705.36	2088.80	14736.000
788	598.690	16703.14	2091.03	14787.000
789	598.770	16700.91	2093.25	14806.000
790	598.849	16698.69	2095.48	14744.000
791	598.929	16696.47	2097.70	14761.000
792	599.009	16694.24	2099.92	14648.000
793	599.089	16692.02	2102.15	14497.000
794	599.168	16689.80	2104.37	14395.000
795	599.248	16687.58	2106.59	14315.000
796	599.328	16685.36	2108.81	14327.000
797	599.408	16683.14	2111.03	14220.000
798	599.487	16680.92	2113.25	14185.000
799	599.567	16678.70	2115.47	14333.000
800	599.647	16676.48	2117.69	14307.000
801	599.727	16674.26	2119.90	14454.000
802	599.806	16672.05	2122.12	14516.000
803	599.886	16669.83	2124.34	14529.000
804	599.966	16667.61	2126.55	14665.000
805	600.046	16665.40	2128.77	14702.000
806	600.125	16663.18	2130.98	14725.000
807	600.205	16660.97	2133.20	14720.000
808	600.285	16658.76	2135.41	14708.000
809	600.365	16656.54	2137.62	14830.000
810	600.444	16654.33	2139.84	14839.000
811	600.524	16652.12	2142.05	14931.000
812	600.604	16649.91	2144.26	14974.000
813	600.684	16647.70	2146.47	14925.000
814	600.763	16645.49	2148.68	14986.000
815	600.843	16643.28	2150.89	14950.000
816	600.923	16641.07	2153.10	14848.000
817	601.003	16638.86	2155.30	14745.000
818	601.082	16636.66	2157.51	14642.000
819	601.162	16634.45	2159.72	14645.000
820	601.242	16632.24	2161.92	14479.000
821	601.322	16630.04	2164.13	14456.000
822	601.401	16627.83	2166.33	14345.000
823	601.481	16625.63	2168.54	14286.000
824	601.561	16623.43	2170.74	14246.000
825	601.640	16621.22	2172.94	14154.000
826	601.720	16619.02	2175.15	14086.000
827	601.800	16616.82	2177.35	14121.000
828	601.880	16614.62	2179.55	14056.000
829	601.959	16612.42	2181.75	13966.000
830	602.039	16610.22	2183.95	13954.000
831	602.119	16608.02	2186.15	13787.000
832	602.199	16605.82	2188.35	13700.000
833	602.278	16603.62	2190.55	13629.000
834	602.358	16601.42	2192.74	13527.000
835	602.438	16599.22	2194.94	13438.000
836	602.518	16597.03	2197.14	13318.000
837	602.597	16594.83	2199.33	13174.000
838	602.677	16592.64	2201.53	13039.000
839	602.757	16590.44	2203.72	13025.000
840	602.836	16588.25	2205.92	12822.000
841	602.916	16586.06	2208.11	12715.000
842	602.996	16583.86	2210.30	12643.000
843	603.076	16581.67	2212.50	12606.000
844	603.155	16579.48	2214.69	12601.000
845	603.235	16577.29	2216.88	12495.000
846	603.315	16575.10	2219.07	12418.000
847	603.394	16572.91	2221.26	12350.000
848	603.474	16570.72	2223.45	12428.000
849	603.554	16568.53	2225.64	12396.000
850	603.634	16566.34	2227.83	12331.000
851	603.713	16564.15	2230.01	12381.000
852	603.793	16561.97	2232.20	12350.000
853	603.873	16559.78	2234.39	12485.000
854	603.952	16557.60	2236.57	12516.000
855	604.032	16555.41	2238.76	12413.000
856	604.112	16553.23	2240.94	12478.000
857	604.192	16551.04	2243.12	12526.000
858	604.271	16548.86	2245.31	12523.000
859	604.351	16546.68	2247.49	12564.000
860	604.431	16544.49	2249.67	12652.000
861	604.510	16542.31	2251.85	12628.000
862	604.590	16540.13	2254.03	12736.000
863	604.670	16537.95	2256.22	12714.000
864	604.750	16535.77	2258.39	12626.000
865	604.829	16533.59	2260.57	12898.000
866	604.909	16531.41	2262.75	13058.000
867	604.989	16529.24	2264.93	13104.000
868	605.068	16527.06	2267.11	13289.000
869	605.148	16524.88	2269.28	13445.000
870	605.228	16522.71	2271.46	13578.000
871	605.307	16520.53	2273.64	13678.000
872	605.387	16518.36	2275.81	13839.000
873	605.467	16516.18	2277.99	13966.000
874	605.547	16514.01	2280.16	14044.000
875	605.626	16511.83	2282.33	14124.000
876	605.706	16509.66	2284.50	14142.000
877	605.786	16507.49	2286.68	14166.000
878	605.865	16505.32	2288.85	14210.000
879	605.945	16503.15	2291.02	14195.000
880	606.025	16500.98	2293.19	14159.000
881	606.104	16498.81	2295.36	14311.000
882	606.184	16496.64	2297.53	14238.000
883	606.264	16494.47	2299.70	14385.000
884	606.343	16492.30	2301.86	14296.000
885	606.423	16490.14	2304.03	14403.000
886	606.503	16487.97	2306.20	14464.000
887	606.583	16485.80	2308.36	14414.000
888	606.662	16483.64	2310.53	14416.000
889	606.742	16481.47	2312.69	14360.000
890	606.822	16479.31	2314.86	14357.000
891	606.901	16477.14	2317.02	14284.000
892	606.981	16474.98	2319.18	14329.000
893	607.061	16472.82	2321.35	14349.000
894	607.140	16470.66	2323.51	14327.000
895	607.220	16468.50	2325.67	14393.000
896	607.300	16466.34	2327.83	14464.000
897	607.379	16464.18	2329.99	14485.000
898	607.459	16462.02	2332.15	14621.000
899	607.539	16459.86	2334.31	14800.000
900	607.618	16457.70	2336.47	14947.000
901	607.698	16455.54	2338.63	15137.000
902	607.778	16453.38	2340.78	15252.000
903	607.857	16451.23	2342.94	15367.000
904	607.937	16449.07	2345.10	15436.000
905	608.017	16446.92	2347.25	15551.000
906	608.096	16444.76	2349.41	15547.000
907	608.176	16442.61	2351.56	15667.000
908	608.256	16440.45	2353.71	15626.000
909	608.335	16438.30	2355.87	15585.000
910	608.415	16436.15	2358.02	15515.000
911	608.495	16434.00	2360.17	15590.000
912	608.574	16431.84	2362.32	15614.000
913	608.654	16429.69	2364.47	15680.000
914	608.734	16427.54	2366.62	15795.000
915	608.813	16425.39	2368.77	15809.000
916	608.893	16423.24	2370.92	15817.000
917	608.973	16421.10	2373.07	15877.000
918	609.052	16418.95	2375.22	15752.000
919	609.132	16416.80	2377.36	15857.000
920	609.212	16414.65	2379.51	15850.000
921	609.291	16412.51	2381.66	15722.000
922	609.371	16410.36	2383.80	15772.000
923	609.451	16408.22	2385.95	15753.000
924	609.530	16406.07	2388.09	15600.000
925	609.610	16403.93	2390.24	15588.000
926	609.690	16401.79	2392.38	15583.000
927	609.769	16399.64	2394.52	15568.000
928	609.849	16397.50	2396.66	15543.000
929	609.929	16395.36	2398.80	15468.000
930	610.008	16393.22	2400.95	15429.000
931	610.088	16391.08	2403.09	15413.000
932	610.168	16388.94	2405.23	15446.000
933	610.247	16386.80	2407.36	15457.000
934	610.327	16384.66	2409.50	15401.000
935	610.406	16382.53	2411.64	15515.000
936	610.486	16380.39	2413.78	15432.000
937	610.566	16378.25	2415.91	15376.000
938	610.645	16376.12	2418.05	15276.000
939	610.725	16373.98	2420.19	15162.000
940	610.805	16371.85	2422.32	15005.000
941	610.884	16369.71	2424.46	14970.000
942	610.964	16367.58	2426.59	14766.000
943	611.044	16365.44	2428.72	14610.000
944	611.123	16363.31	2430.85	14608.000
945	611.203	16361.18	2432.99	14500.000
946	611.283	16359.05	2435.12	14386.000
947	611.362	16356.92	2437.25	14465.000
948	611.442	16354.79	2439.38	14315.000
949	611.521	16352.66	2441.51	14365.000
950	611.601	16350.53	2443.64	14441.000
951	611.681	16348.40	2445.77	14427.000
952	611.760	16346.27	2447.89	14521.000
953	611.840	16344.14	2450.02	14572.000
954	611.920	16342.02	2452.15	14630.000
955	611.999	16339.89	2454.28	14709.000
956	612.079	16337.77	2456.40	14859.000
957	612.158	16335.64	2458.53	14878.000
958	612.238	16333.52	2460.65	15052.000
959	612.318	16331.39	2462.77	15066.000
960	612.397	16329.27	2464.90	15055.000
961	612.477	16327.15	2467.02	15042.000
962	612.557	16325.02	2469.14	15016.000
963	612.636	16322.90	2471.26	15080.000
964	612.716	16320.78	2473.39	15042.000
965	612.795	16318.66	2475.51	15044.000
966	612.875	16316.54	2477.63	15032.000
967	612.955	16314.42	2479.74	14997.000
968	613.034	16312.30	2481.86	15000.000
969	613.114	16310.18	2483.98	15015.000
970	613.193	16308.07	2486.10	15058.000
971	613.273	16305.95	2488.22	15096.000
972	613.353	16303.83	2490.33	15113.000
973	613.432	16301.72	2492.45	15243.000
974	613.512	16299.60	2494.56	15425.000
975	613.592	16297.49	2496.68	15648.000
976	613.671	16295.37	2498.79	15682.000
977	613.751	16293.26	2500.91	15972.000
978	613.830	16291.15	2503.02	16003.000
979	613.910	16289.03	2505.13	16324.000
980	613.990	16286.92	2507.24	16687.000
981	614.069	16284.81	2509.35	17048.000
982	614.149	16282.70	2511.47	17337.000
983	614.228	16280.59	2513.58	17704.000
984	614.308	16278.48	2515.68	18172.000
985	614.388	16276.37	2517.79	18511.000
986	614.467	16274.26	2519.90	18977.000
987	614.547	16272.16	2522.01	19449.000
988	614.626	16270.05	2524.12	19885.000
989	614.706	16267.94	2526.22	20249.000
990	614.785	16265.84	2528.33	20602.000
991	614.865	16263.73	2530.44	20687.000
992	614.945	16261.63	2532.54	20792.000
993	615.024	16259.52	2534.64	20920.000
994	615.104	16257.42	2536.75	20684.000
995	615.183	16255.31	2538.85	20479.000
996	615.263	16253.21	2540.95	20437.000
997	615.343	16251.11	2543.06	20329.000
998	615.422	16249.01	2545.16	20146.000
999	615.502	16246.91	2547.26	20111.000
1000	615.581	16244.81	2549.36	19836.000
1001	615.661	16242.71	2551.46	19667.000
1002	615.740	16240.61	2553.56	19726.000
1003	615.820	16238.51	2555.66	19532.000
1004	615.900	16236.41	2557.75	19348.000
1005	615.979	16234.31	2559.85	19270.000
1006	616.059	16232.22	2561.95	19070.000
1007	616.138	16230.12	2564.05	18952.000
1008	616.218	16228.03	2566.14	18882.000
1009	616.297	16225.93	2568.24	18849.000
1010	616.377	16223.84	2570.33	18704.000
1011	616.457	16221.74	2572.43	18577.000
1012	616.536	16219.65	2574.52	18491.000
1013	616.616	16217.55	2576.61	18435.000
1014	616.695	16215.46	2578.70	18358.000
1015	616.775	16213.37	2580.80	18194.000
1016	616.854	16211.28	2582.89	18077.000
1017	616.934	16209.19	2584.98	18029.000
1018	617.014	16207.10	2587.07	17794.000
1019	617.093	16205.01	2589.16	17768.000
1020	617.173	16202.92	2591.25	17717.000
1021	617.252	16200.83	2593.33	17695.000
1022	617.332	16198.74	2595.42	17558.000
1023	617.411	16196.66	2597.51	17580.000
1024	617.491	16194.57	2599.60	17605.000
